Time,Signal
0.0,0.0
0.003000300030003,0.018850324524589884
0.006000600060006,0.037693950278986844
0.009000900090009,0.056524180873515156
0.012001200120012,0.07533432467868763
0.015001500150015001,0.09411769720318514
0.018001800180018,0.1128676234692997
0.021002100210021,0.1315774403849967
0.024002400240024,0.15024049911175305
0.027002700270027002,0.1688501674273307
0.030003000300030003,0.18739983208264469
0.033003300330033,0.20588290115188923
0.036003600360036,0.2242928063750859
0.039003900390039,0.24262300549222204
0.042004200420042,0.2608669845681494
0.045004500450045004,0.2790182603074172
0.048004800480048,0.29707038235821714
0.051005100510051,0.3150169356046208
0.054005400540054004,0.33285154244629594
0.057005700570057,0.3505678650648904
0.060006000600060005,0.36815960767627964
0.063006300630063,0.38562051876787606
0.066006600660066,0.40294439332020576
0.069006900690069,0.4201250750119638
0.072007200720072,0.43715645840776307
0.075007500750075,0.4540324911278005
0.078007800780078,0.4707471759986685
0.081008100810081,0.48729457318454883
0.084008400840084,0.50366880229803
0.087008700870087,0.5198640444897985
0.09000900090009001,0.5358745445164622
0.093009300930093,0.5516946127857695
0.096009600960096,0.5673186273784991
0.099009900990099,0.5827410360463008
0.102010201020102,0.5979563581847765
0.10501050105010501,0.612959186781104
0.10801080108010801,0.6277441903355052
0.111011101110111,0.6423061147558833
0.114011401140114,0.6566397852249488
0.117011701170117,0.670740108039176
0.12001200120012001,0.6846020724189332
0.12301230123012301,0.6982207522891452
0.126012601260126,0.7115913080298538
0.12901290129012902,0.7247089881960568
0.132013201320132,0.7375691312062101
0.135013501350135,0.7501671669987982
0.138013801380138,0.7624986186563782
0.141014101410141,0.7745591039965277
0.144014401440144,0.7863443371291226
0.147014701470147,0.7978501299793995
0.15001500150015,0.809072393776256
0.153015301530153,0.8200071405052615
0.156015601560156,0.8306504843258641
0.159015901590159,0.840998642952287
0.162016201620162,0.8510479389976253
0.16501650165016502,0.8607948012806659
0.168016801680168,0.870235766094964
0.171017101710171,0.8793674784397286
0.174017401740174,0.8881866932120768
0.177017701770177,0.8966902763602328
0.18001800180018002,0.9048752059972659
0.183018301830183,0.9127385734749661
0.186018601860186,0.9202775844174804
0.189018901890189,0.9274895597143391
0.192019201920192,0.9343719364725225
0.19501950195019502,0.9409222689272253
0.198019801980198,0.9471382293110002
0.201020102010201,0.9530176086809674
0.204020402040204,0.958558317703799
0.207020702070207,0.9637583873981966
0.21002100210021002,0.9686159698346023
0.213021302130213,0.9731293387918896
0.21602160216021601,0.9772968903708045
0.219021902190219,0.9811171435639374
0.222022202220222,0.9845887407820233
0.22502250225022502,0.987710448336383
0.228022802280228,0.9904811568773342
0.23102310231023102,0.992899881788418
0.234023402340234,0.9949657635362976
0.237023702370237,0.9966780679762076
0.24002400240024002,0.9980361866128444
0.243024302430243,0.9990396368166051
0.24602460246024602,0.9996880619950973
0.249024902490249,0.9999812317198606
0.252025202520252,0.9999190418082535
0.255025502550255,0.9995015143604746
0.25802580258025803,0.9987287977517106
0.261026102610261,0.9976011665794086
0.264026402640264,0.9961190215656925
0.267026702670267,0.9942828894149613
0.27002700270027,0.9920934226267144
0.27302730273027304,0.9895513992636765
0.276027602760276,0.9866577226752997
0.279027902790279,0.983413421176744
0.282028202820282,0.9798196476834484
0.285028502850285,0.9758776793014239
0.288028802880288,0.9715889168734126
0.291029102910291,0.9669548844810758
0.294029402940294,0.9619772289033865
0.297029702970297,0.9566577190314199
0.3000300030003,0.9509982452397489
0.303030303030303,0.9450008187146687
0.306030603060306,0.9386675707394887
0.309030903090309,0.932000751937147
0.312031203120312,0.9250027314704139
0.31503150315031503,0.917675996199972
0.318031803180318,0.9100231498006693
0.321032103210321,0.9020469118362607
0.324032403240324,0.8937501167929678
0.327032703270327,0.8851357130721961
0.33003300330033003,0.8762067619427742
0.333033303330333,0.8669664364530818
0.336033603360336,0.8574180203034537
0.339033903390339,0.8475649066792654
0.342034203420342,0.8374105970451076
0.34503450345034503,0.8269586999004849
0.348034803480348,0.8162129294974765
0.351035103510351,0.8051771045208153
0.354035403540354,0.7938551467308563
0.357035703570357,0.7822510795699162
0.36003600360036003,0.7703690267324764
0.363036303630363,0.7582132106997616
0.366036603660366,0.7457879512392113
0.369036903690369,0.7330976638693804
0.372037203720372,0.7201468582908138
0.37503750375037503,0.7069401367834499
0.378037803780378,0.6934821925711246
0.381038103810381,0.6797778081537585
0.384038403840384,0.665831853607818
0.387038703870387,0.6516492848556538
0.39003900390039004,0.6372351419043326
0.393039303930393,0.622594547054589
0.396039603960396,0.6077327030805318
0.399039903990399,0.5926548913807544
0.402040204020402,0.5773664701015034
0.40504050405040504,0.5618728722325723
0.408040804080408,0.546179603676603
0.411041104110411,0.5302922412924702
0.414041404140414,0.5142164309134568
0.417041704170417,0.4979578853409131
0.42004200420042004,0.4815223823141192
0.423042304230423,0.46491576245707356
0.426042604260426,0.4481439272029289
0.429042904290429,0.43121283669682475
0.43204320432043203,0.41412850767784987
0.43504350435043504,0.39689701134089833
0.438043804380438,0.37952447117917043
0.441044104410441,0.36201706080808815
0.444044404440444,0.34438100177140335
0.44704470447044703,0.32662256133026707
0.45004500450045004,0.30874805023605945
0.453045304530453,0.2907638204877597
0.456045604560456,0.27267626307465914
0.459045904590459,0.25449180570521945
0.46204620462046203,0.23621691052288274
0.46504650465046504,0.21785807180964228
0.468046804680468,0.1994218136781942
0.471047104710471,0.18091468775348643
0.474047404740474,0.16234327084449282
0.47704770477047703,0.14371416260703762
0.48004800480048004,0.12503398319849945
0.483048304830483,0.10630937092522943
0.486048604860486,0.08754697988352166
0.489048904890489,0.0687534775949725
0.49204920492049203,0.049935542637066774
0.495049504950495,0.031099862269837197
0.498049804980498,0.012253130059436141
0.5010501050105011,-0.006597956500531781
0.504050405040504,-0.02544669836907017
0.507050705070507,-0.04428639733840962
0.51005100510051,-0.06311035841432197
0.513051305130513,-0.08191189219529478
0.5160516051605161,-0.10068431724972278
0.519051905190519,-0.11942096249025821
0.522052205220522,-0.13811516954449587
0.525052505250525,-0.15676029512113326
0.528052805280528,-0.17534971337076743
0.5310531053105311,-0.19387681824050593
0.534053405340534,-0.2123350258215297
0.537053705370537,-0.23071777668879595
0.54005400540054,-0.2490185382320361
0.543054305430543,-0.267230806977222
0.5460546054605461,-0.28534811089768736
0.549054905490549,-0.3033640117140628
0.552055205520552,-0.3212721071822265
0.555055505550555,-0.3390660333684456
0.558055805580558,-0.3567394669109007
0.5610561056105611,-0.3742861272668009
0.564056405640564,-0.39169977894427244
0.567056705670567,-0.40897423371824526
0.57005700570057,-0.4261033528295393
0.573057305730573,-0.44308104916636964
0.576057605760576,-0.4599012894275053
0.579057905790579,-0.4765580962663004
0.582058205820582,-0.4930455504148372
0.585058505850585,-0.5093577927874411
0.588058805880588,-0.525489026562797
0.591059105910591,-0.5414335192439473
0.594059405940594,-0.5571856046954282
0.597059705970597,-0.5727396851568196
0.6000600060006,-0.588090233232006
0.603060306030603,-0.6032317938534225
0.606060606060606,-0.6181589862206045
0.609060906090609,-0.6328665057123424
0.612061206120612,-0.6473491257717627
0.6150615061506151,-0.6616016997636752
0.618061806180618,-0.6756191628035089
0.621062106210621,-0.6893965335572042
0.624062406240624,-0.7029289160114109
0.627062706270627,-0.7162115012133635
0.6300630063006301,-0.7292395689798267
0.633063306330633,-0.7420084895744827
0.636063606360636,-0.754513725353189
0.639063906390639,-0.7667508323765019
0.642064206420642,-0.7787154619889014
0.6450645064506451,-0.7904033623641604
0.648064806480648,-0.8018103800162979
0.651065106510651,-0.8129324612755883
0.654065406540654,-0.8237656537291003
0.657065706570657,-0.8343061076252485
0.6600660066006601,-0.8445500772418694
0.663066306630663,-0.8544939222173209
0.666066606660666,-0.8641341088441473
0.669066906690669,-0.8734672113248384
0.672067206720672,-0.8824899129892413
0.6750675067506751,-0.891199007473196
0.678067806780678,-0.8995913998579674
0.681068106810681,-0.9076641077700751
0.684068406840684,-0.9154142624411296
0.687068706870687,-0.9228391097272939
0.6900690069006901,-0.929936011088016
0.693069306930693,-0.9367024445236749
0.696069606960696,-0.9431360054718161
0.699069906990699,-0.949234407661651
0.702070207020702,-0.9549954839265212
0.7050705070507051,-0.9604171869740362
0.708070807080708,-0.9654975901136112
0.711071107110711,-0.97023488794115
0.714071407140714,-0.9746273969806232
0.717071707170717,-0.9786735562823192
0.7200720072007201,-0.982371927977554
0.723072307230723,-0.9857211977896397
0.726072607260726,-0.9887201755009355
0.729072907290729,-0.9913677953758104
0.732073207320732,-0.9936631165393701
0.7350735073507351,-0.9956053233118115
0.738073807380738,-0.9971937254982883
0.741074107410741,-0.9984277586341833
0.744074407440744,-0.9993069841856994
0.747074707470747,-0.9998310897057
0.7500750075007501,-0.9999998889447426
0.753075307530753,-0.9998133219172655
0.756075607560756,-0.9992714549229039
0.759075907590759,-0.9983744805229297
0.762076207620762,-0.9971227174718221
0.7650765076507651,-0.9955166106039927
0.768076807680768,-0.9935567306757059
0.771077107710771,-0.9912437741622524
0.774077407740774,-0.988578563010444
0.777077707770777,-0.9855620443465223
0.7800780078007801,-0.9821952901395821
0.783078307830783,-0.9784794968206288
0.786078607860786,-0.9744159848574082
0.789078907890789,-0.9700061982851557
0.792079207920792,-0.9652517041934359
0.7950795079507951,-0.9601541921692508
0.798079807980798,-0.9547154736966185
0.801080108010801,-0.9489374815128316
0.804080408040804,-0.9428222689216288
0.807080708070807,-0.9363720090635186
0.8100810081008101,-0.9295889941435193
0.813081308130813,-0.9224756346165869
0.816081608160816,-0.9150344583310195
0.819081908190819,-0.9072681096301455
0.822082208220822,-0.8991793484126145
0.8250825082508251,-0.8907710491516194
0.828082808280828,-0.8820461998734093
0.831083108310831,-0.8730079010954417
0.834083408340834,-0.863659364724566
0.837083708370837,-0.8540039129156186
0.8400840084008401,-0.844044976890841
0.843084308430843,-0.8337860957205409
0.846084608460846,-0.8232309150654227
0.849084908490849,-0.8123831858810443
0.852085208520852,-0.8012467630848553
0.8550855085508551,-0.7898256041862863
0.858085808580858,-0.7781237678803852
0.861086108610861,-0.7661454126054931
0.8640864086408641,-0.7538947950654752
0.867086708670867,-0.7413762687170341
0.8700870087008701,-0.7285942822226332
0.873087308730873,-0.7155533778695975
0.876087608760876,-0.7022581899559331
0.8790879087908791,-0.6887134431434556
0.882088208820882,-0.6749239507788064
0.8850885088508851,-0.6608946131829481
0.888088808880888,-0.6466304159097573
0.891089108910891,-0.6321364279743271
0.8940894089408941,-0.6174178000516083
0.897089708970897,-0.6024797626460363
0.9000900090009001,-0.5873276242327813
0.903090309030903,-0.5719667693713002
0.906090609060906,-0.5564026567918414
0.9090909090909091,-0.5406408174555981
0.912091209120912,-0.5246868525891909
0.9150915091509151,-0.5085464316941792
0.918091809180918,-0.4922252905323152
0.921092109210921,-0.4757292290872422
0.9240924092409241,-0.4590641095033785
0.927092709270927,-0.442235854002711
0.9300930093009301,-0.42525044278023155
0.933093309330933,-0.4081139118787835
0.936093609360936,-0.3908323510440499
0.9390939093909391,-0.3734119015604662
0.942094209420942,-0.3558587540688142
0.9450945094509451,-0.33817914636627533
0.948094809480948,-0.32037936118973187
0.951095109510951,-0.3024657239830885
0.9540954095409541,-0.28444460064942534
0.957095709570957,-0.2663223952887728
0.9600960096009601,-0.24810554792230527
0.963096309630963,-0.22980053220377825
0.966096609660966,-0.21141385311900848
0.9690969096909691,-0.19295204467422086
0.972097209720972,-0.17442166757408592
0.975097509750975,-0.15582930689026142
0.978097809780978,-0.1371815697212822
0.981098109810981,-0.11848508284462275
0.9840984098409841,-0.09974649036175759
0.987098709870987,-0.08097245133707845
0.99009900990099,-0.06216963743148109
0.993099309930993,-0.043344730531485264
0.996099609960996,-0.024504420374716552
0.9990999099909991,-0.005655402172598071
1.0021002100210021,0.013195625768899344
1.005100510051005,0.032041964429611214
1.008100810081008,0.05087691645578723
1.011101110111011,0.06969378854010241
1.014101410141014,0.08848589380023401
1.0171017101710171,0.1072465541551549
1.02010201020102,0.12596910269829514
1.023102310231023,0.14464688606674123
1.026102610261026,0.1632732668056135
1.029102910291029,0.18184162572679494
1.0321032103210321,0.20034536426116922
1.035103510351035,0.21877790680352302
1.038103810381038,0.2371327030493049
1.041104110411041,0.25540323032237583
1.044104410441044,0.2735829958929496
1.0471047104710471,0.291665539284895
1.05010501050105,0.30964443457155993
1.053105310531053,0.3275132926593422
1.056105610561056,0.34526576355815114
1.059105910591059,0.3628955386379812
1.0621062106210621,0.3803963528707878
1.065106510651065,0.39776198705686366
1.068106810681068,0.41498627003493777
1.071107110711071,0.432063080875195
1.074107410741074,0.448986351054449
1.0771077107710771,0.46575006661269264
1.08010801080108,0.4823482702902501
1.083108310831083,0.4987750636447962
1.086108610861086,0.5150246091474573
1.089108910891089,0.5310911322572742
1.0921092109210921,0.5469689234732801
1.095109510951095,0.5626523403634618
1.098109810981098,0.5781358095698946
1.101110111011101,0.5934138287893229
1.104110411041104,0.6084809687284938
1.1071107110711071,0.6233318750335466
1.11011101110111,0.6379612701927646
1.113111311131113,0.6523639554120325
1.116111611161116,0.6665348124623078
1.119111911191119,0.6804688054984679
1.1221122112211221,0.6941609828488804
1.125112511251125,0.7076064787750581
1.128112811281128,0.7208005152007824
1.131113111311131,0.7337384034100676
1.134113411341134,0.7464155457133734
1.1371137113711371,0.7588274370814704
1.14011401140114,0.7709696667463701
1.143114311431143,0.7828379197687717
1.146114611461146,0.7944279785714399
1.149114911491149,0.8057357244379914
1.152115211521152,0.8167571389765494
1.155115511551155,0.8274883055477433
1.158115811581158,0.8379254106565479
1.161116111611161,0.8480647453074762
1.164116411641164,0.8579027063226283
1.167116711671167,0.8674357976221398
1.17011701170117,0.8766606314665715
1.173117311731173,0.8855739296607957
1.176117611761176,0.8941725247189598
1.179117911791179,0.9024533609901009
1.182118211821182,0.910413495744023
1.185118511851185,0.9180501002170443
1.188118811881188,0.9253604606172413
1.191119111911191,0.9323419790888441
1.194119411941194,0.9389921746354231
1.197119711971197,0.9453086840015529
1.2001200120012,0.9512892625126336
1.203120312031203,0.9569317848725715
1.206120612061206,0.9622342459190394
1.209120912091209,0.9671947613360425
1.212121212121212,0.9718115683235414
1.215121512151215,0.9760830262238919
1.218121812181218,0.9800076171048779
1.221122112211221,0.983583946299136
1.224122412241224,0.9868107428997714
1.227122712271227,0.989686860211996
1.2301230123012301,0.9922112761606251
1.233123312331233,0.994383093653288
1.236123612361236,0.9962015408992253
1.239123912391239,0.9976659716835564
1.242124212421242,0.9987758655969234
1.2451245124512451,0.9995308282204259
1.248124812481248,0.9999305912657852
1.251125112511251,0.9999750126706848
1.254125412541254,0.9996640766492543
1.257125712571257,0.9989978936976787
1.2601260126012601,0.9979767005549325
1.263126312631263,0.996600860118651
1.266126612661266,0.9948708613161675
1.269126912691269,0.9927873189307657
1.272127212721272,0.9903509733832067
1.2751275127512751,0.9875626904686073
1.278127812781278,0.9844234610487674
1.281128112811281,0.9809344007000498
1.284128412841284,0.9770967493169412
1.287128712871287,0.972911870671438
1.2901290129012901,0.9683812519284047
1.293129312931293,0.9635065031170883
1.296129612961296,0.958289356558967
1.299129912991299,0.9527316662521397
1.302130213021302,0.9468354072124819
1.3051305130513051,0.9406026747717857
1.308130813081308,0.9340356838331574
1.311131113111311,0.9271367680839062
1.314131413141314,0.9199083791662387
1.317131713171317,0.9123530858060214
1.3201320132013201,0.9044735728999469
1.323132313231323,0.8962726405614104
1.326132613261326,0.8877532031254414
1.329132913291329,0.8789182881130518
1.332133213321332,0.869771035155352
1.3351335133513351,0.860314694877836
1.338133813381338,0.8505526277452164
1.341134113411341,0.84048830286723
1.344134413441344,0.8301252967658289
1.347134713471347,0.8194672921042122
1.3501350135013501,0.8085180763781238
1.353135313531353,0.7972815405699105
1.356135613561356,0.7857616777657959
1.359135913591359,0.7739625817368677
1.362136213621362,0.761888445484298
1.3651365136513651,0.7495435597492814
1.368136813681368,0.7369323114882642
1.371137113711371,0.7240591823139522
1.374137413741374,0.7109287469027054
1.377137713771377,0.6975456713688543
1.3801380138013801,0.6839147116065102
1.383138313831383,0.6700407115994963
1.386138613861386,0.6559286016999403
1.389138913891389,0.6415833968762094
1.392139213921392,0.6270101949307478
1.3951395139513951,0.6122141746884986
1.398139813981398,0.59720059415652
1.401140114011401,0.5819747886554624
1.404140414041404,0.5665421689235852
1.407140714071407,0.5509082191939514
1.4101410141014101,0.5350784952455256
1.413141314131413,0.5190586224288324
1.416141614161416,0.5028542936668984
1.419141914191419,0.48647126743217367
1.422142214221422,0.46991536570017517
1.4251425142514251,0.4531924718805405
1.428142814281428,0.4363085287262734
1.431143114311431,0.41926953622188456
1.434143414341434,0.4020815494511948
1.437143714371437,0.38475067644557337
1.4401440144014401,0.3672830760133349
1.443144314431443,0.34968495555112594
1.446144614461446,0.33196256883800257
1.449144914491449,0.31412221381306754
1.452145214521452,0.29617023033738016
1.4551455145514551,0.278112997940995
1.458145814581458,0.2599569335558867
1.461146114611461,0.24170848923558377
1.464146414641464,0.22337414986233767
1.467146714671467,0.20496043084260063
1.4701470147014701,0.18647387579168193
1.473147314731473,0.16792105420836215
1.476147614761476,0.14930855914030944
1.479147914791479,0.13064300484114483
1.482148214821482,0.11193102441994524
1.4851485148514851,0.09317926748407239
1.488148814881488,0.07439439777611934
1.491149114911491,0.05558309080584435
1.494149414941494,0.036752031477912686
1.497149714971497,0.01790791171631903
1.5001500150015001,-0.0009425719137109366
1.503150315031503,-0.019792720585441802
1.506150615061506,-0.03863583559117104
1.509150915091509,-0.05746522072272938
1.512151215121512,-0.07627418465107509
1.5151515151515151,-0.09505604330418284
1.518151815181518,-0.11380412224231648
1.521152115211521,-0.13251175902992474
1.524152415241524,-0.15117230560322517
1.527152715271527,-0.16977913063271788
1.5301530153015301,-0.18832562187972426
1.533153315331533,-0.20680518854615915
1.536153615361536,-0.22521126361668353
1.539153915391539,-0.24353730619238845
1.542154215421542,-0.2617768038152239
1.5451545154515451,-0.27992327478229495
1.548154815481548,-0.2979702704492473
1.551155115511551,-0.315911377521895
1.554155415541554,-0.33374022033529577
1.557155715571557,-0.35145046311943556
1.5601560156015601,-0.3690358122507615
1.563156315631563,-0.3864900184887116
1.566156615661566,-0.4038068791964896
1.569156915691569,-0.4209802405452778
1.572157215721572,-0.438003999701089
1.5751575157515751,-0.4548721069935228
1.578157815781578,-0.4715785680655955
1.581158115811581,-0.488117446003953
1.584158415841584,-0.5044828634486387
